          WD01/DL07 grain model for R_V=3.1, q_PAH=0.046
 2.000E-03 = a1 (um)
 2.000E-02 = a2 (um)
                              sigma_ext (um^2/H)
           --------- carbon -----------  -------- silicate ----------
lambda      a<a1     a1<a<a2    a2<a      a<a1     a1<a<a2    a2<a 
 (um)     (um^2/H)  (um^2/H)  (um^2/H)  (um^2/H)  (um^2/H)  (um^2/H) 
1.000E-01 5.154E-14 2.474E-14 2.677E-14 3.697E-15 3.377E-14 7.013E-14
1.009E-01 5.038E-14 2.409E-14 2.676E-14 3.577E-15 3.316E-14 7.029E-14
1.019E-01 4.921E-14 2.345E-14 2.677E-14 3.454E-15 3.250E-14 7.044E-14
1.028E-01 4.805E-14 2.279E-14 2.679E-14 3.322E-15 3.174E-14 7.057E-14
1.038E-01 4.688E-14 2.208E-14 2.681E-14 3.183E-15 3.089E-14 7.068E-14
1.047E-01 4.572E-14 2.133E-14 2.684E-14 3.050E-15 3.003E-14 7.077E-14
1.057E-01 4.457E-14 2.055E-14 2.687E-14 2.937E-15 2.923E-14 7.083E-14
1.067E-01 4.342E-14 1.974E-14 2.686E-14 2.837E-15 2.847E-14 7.088E-14
1.076E-01 4.228E-14 1.893E-14 2.684E-14 2.745E-15 2.775E-14 7.092E-14
1.086E-01 4.115E-14 1.809E-14 2.677E-14 2.659E-15 2.706E-14 7.097E-14
1.096E-01 4.004E-14 1.733E-14 2.671E-14 2.578E-15 2.640E-14 7.103E-14
1.107E-01 3.895E-14 1.664E-14 2.666E-14 2.500E-15 2.576E-14 7.109E-14
1.117E-01 3.787E-14 1.601E-14 2.663E-14 2.426E-15 2.514E-14 7.114E-14
1.127E-01 3.681E-14 1.539E-14 2.662E-14 2.356E-15 2.453E-14 7.120E-14
1.138E-01 3.577E-14 1.478E-14 2.661E-14 2.288E-15 2.393E-14 7.126E-14
1.148E-01 3.474E-14 1.416E-14 2.660E-14 2.223E-15 2.336E-14 7.132E-14
1.159E-01 3.374E-14 1.361E-14 2.658E-14 2.160E-15 2.279E-14 7.138E-14
1.169E-01 3.276E-14 1.308E-14 2.655E-14 2.100E-15 2.223E-14 7.144E-14
1.180E-01 3.180E-14 1.258E-14 2.652E-14 2.042E-15 2.169E-14 7.150E-14
1.191E-01 3.086E-14 1.207E-14 2.648E-14 1.985E-15 2.115E-14 7.155E-14
1.202E-01 2.995E-14 1.158E-14 2.643E-14 1.931E-15 2.063E-14 7.161E-14
1.213E-01 2.906E-14 1.110E-14 2.638E-14 1.878E-15 2.012E-14 7.167E-14
1.225E-01 2.819E-14 1.064E-14 2.631E-14 1.827E-15 1.962E-14 7.173E-14
1.236E-01 2.735E-14 1.021E-14 2.621E-14 1.777E-15 1.912E-14 7.178E-14
1.247E-01 2.654E-14 9.795E-15 2.610E-14 1.728E-15 1.864E-14 7.184E-14
1.259E-01 2.575E-14 9.409E-15 2.596E-14 1.681E-15 1.816E-14 7.189E-14
1.271E-01 2.499E-14 9.048E-15 2.580E-14 1.635E-15 1.769E-14 7.195E-14
1.282E-01 2.426E-14 8.714E-15 2.561E-14 1.590E-15 1.724E-14 7.200E-14
1.294E-01 2.355E-14 8.404E-15 2.539E-14 1.546E-15 1.678E-14 7.206E-14
1.306E-01 2.256E-14 8.038E-15 2.515E-14 1.502E-15 1.634E-14 7.212E-14
1.318E-01 2.201E-14 7.801E-15 2.490E-14 1.460E-15 1.590E-14 7.217E-14
1.330E-01 2.150E-14 7.587E-15 2.463E-14 1.419E-15 1.547E-14 7.223E-14
1.343E-01 2.102E-14 7.392E-15 2.434E-14 1.378E-15 1.505E-14 7.229E-14
1.355E-01 2.057E-14 7.217E-15 2.404E-14 1.337E-15 1.463E-14 7.236E-14
1.368E-01 2.016E-14 7.058E-15 2.373E-14 1.297E-15 1.421E-14 7.243E-14
1.380E-01 1.978E-14 6.916E-15 2.341E-14 1.256E-15 1.380E-14 7.251E-14
1.393E-01 1.942E-14 6.788E-15 2.309E-14 1.216E-15 1.340E-14 7.259E-14
1.406E-01 1.910E-14 6.671E-15 2.275E-14 1.176E-15 1.299E-14 7.270E-14
1.419E-01 1.881E-14 6.570E-15 2.241E-14 1.132E-15 1.257E-14 7.283E-14
1.432E-01 1.854E-14 6.485E-15 2.205E-14 1.082E-15 1.210E-14 7.300E-14
1.445E-01 1.831E-14 6.414E-15 2.170E-14 1.025E-15 1.156E-14 7.318E-14
1.459E-01 1.810E-14 6.359E-15 2.135E-14 9.652E-16 1.097E-14 7.334E-14
1.472E-01 1.792E-14 6.322E-15 2.103E-14 9.039E-16 1.035E-14 7.347E-14
1.486E-01 1.777E-14 6.299E-15 2.073E-14 8.451E-16 9.743E-15 7.357E-14
1.500E-01 1.764E-14 6.289E-15 2.045E-14 7.859E-16 9.115E-15 7.363E-14
1.514E-01 1.754E-14 6.292E-15 2.021E-14 7.292E-16 8.501E-15 7.365E-14
1.528E-01 1.747E-14 6.307E-15 1.998E-14 6.759E-16 7.915E-15 7.365E-14
1.542E-01 1.742E-14 6.333E-15 1.978E-14 6.255E-16 7.354E-15 7.360E-14
1.556E-01 1.740E-14 6.370E-15 1.961E-14 5.786E-16 6.824E-15 7.352E-14
1.570E-01 1.741E-14 6.418E-15 1.946E-14 5.356E-16 6.331E-15 7.340E-14
1.585E-01 1.745E-14 6.478E-15 1.933E-14 4.955E-16 5.868E-15 7.324E-14
1.600E-01 1.751E-14 6.550E-15 1.923E-14 4.581E-16 5.433E-15 7.304E-14
1.614E-01 1.761E-14 6.637E-15 1.917E-14 4.236E-16 5.032E-15 7.282E-14
1.629E-01 1.774E-14 6.738E-15 1.915E-14 3.917E-16 4.659E-15 7.257E-14
1.644E-01 1.789E-14 6.853E-15 1.917E-14 3.622E-16 4.314E-15 7.230E-14
1.660E-01 1.808E-14 6.983E-15 1.921E-14 3.353E-16 3.999E-15 7.200E-14
1.675E-01 1.831E-14 7.130E-15 1.930E-14 3.108E-16 3.711E-15 7.169E-14
1.690E-01 1.857E-14 7.293E-15 1.942E-14 2.880E-16 3.444E-15 7.137E-14
1.706E-01 1.887E-14 7.472E-15 1.956E-14 2.673E-16 3.200E-15 7.102E-14
1.722E-01 1.921E-14 7.666E-15 1.972E-14 2.483E-16 2.976E-15 7.064E-14
1.738E-01 1.957E-14 7.878E-15 1.990E-14 2.305E-16 2.767E-15 7.027E-14
1.754E-01 1.998E-14 8.111E-15 2.010E-14 2.140E-16 2.573E-15 6.991E-14
1.770E-01 2.043E-14 8.366E-15 2.031E-14 1.986E-16 2.393E-15 6.955E-14
1.786E-01 2.094E-14 8.645E-15 2.054E-14 1.843E-16 2.227E-15 6.917E-14
1.803E-01 2.149E-14 8.951E-15 2.078E-14 1.713E-16 2.074E-15 6.874E-14
1.820E-01 2.211E-14 9.290E-15 2.103E-14 1.593E-16 1.934E-15 6.830E-14
1.837E-01 2.280E-14 9.661E-15 2.130E-14 1.483E-16 1.805E-15 6.786E-14
1.854E-01 2.356E-14 1.007E-14 2.158E-14 1.381E-16 1.686E-15 6.749E-14
1.871E-01 2.441E-14 1.052E-14 2.188E-14 1.288E-16 1.576E-15 6.716E-14
1.888E-01 2.535E-14 1.101E-14 2.219E-14 1.204E-16 1.476E-15 6.678E-14
1.905E-01 2.640E-14 1.156E-14 2.252E-14 1.125E-16 1.382E-15 6.632E-14
1.923E-01 2.755E-14 1.215E-14 2.286E-14 1.048E-16 1.293E-15 6.583E-14
1.941E-01 2.882E-14 1.278E-14 2.321E-14 9.771E-17 1.210E-15 6.533E-14
1.959E-01 3.021E-14 1.347E-14 2.358E-14 9.116E-17 1.133E-15 6.491E-14
1.977E-01 3.172E-14 1.420E-14 2.397E-14 8.515E-17 1.062E-15 6.464E-14
1.995E-01 3.334E-14 1.497E-14 2.437E-14 7.966E-17 9.970E-16 6.438E-14
2.014E-01 3.506E-14 1.576E-14 2.478E-14 7.464E-17 9.370E-16 6.397E-14
2.032E-01 3.684E-14 1.655E-14 2.520E-14 7.009E-17 8.820E-16 6.344E-14
2.051E-01 3.866E-14 1.734E-14 2.563E-14 6.599E-17 8.319E-16 6.288E-14
2.070E-01 4.044E-14 1.809E-14 2.605E-14 6.235E-17 7.864E-16 6.235E-14
2.089E-01 4.212E-14 1.876E-14 2.648E-14 5.913E-17 7.453E-16 6.195E-14
2.109E-01 4.359E-14 1.934E-14 2.691E-14 5.627E-17 7.081E-16 6.176E-14
2.128E-01 4.478E-14 1.978E-14 2.734E-14 5.370E-17 6.743E-16 6.155E-14
2.148E-01 4.559E-14 2.004E-14 2.777E-14 5.146E-17 6.437E-16 6.109E-14
2.168E-01 4.596E-14 2.009E-14 2.820E-14 4.952E-17 6.162E-16 6.052E-14
2.188E-01 4.584E-14 1.989E-14 2.855E-14 4.785E-17 5.918E-16 5.994E-14
2.208E-01 4.525E-14 1.945E-14 2.881E-14 4.645E-17 5.700E-16 5.940E-14
2.228E-01 4.424E-14 1.884E-14 2.898E-14 4.533E-17 5.510E-16 5.898E-14
2.249E-01 4.287E-14 1.811E-14 2.909E-14 4.445E-17 5.345E-16 5.873E-14
2.270E-01 4.124E-14 1.732E-14 2.918E-14 4.381E-17 5.205E-16 5.856E-14
2.291E-01 3.945E-14 1.649E-14 2.924E-14 4.335E-17 5.083E-16 5.818E-14
2.312E-01 3.757E-14 1.563E-14 2.926E-14 4.298E-17 4.974E-16 5.766E-14
2.333E-01 3.569E-14 1.477E-14 2.923E-14 4.266E-17 4.873E-16 5.714E-14
2.355E-01 3.384E-14 1.393E-14 2.915E-14 4.242E-17 4.782E-16 5.662E-14
2.377E-01 3.208E-14 1.312E-14 2.903E-14 4.226E-17 4.701E-16 5.617E-14
2.399E-01 3.041E-14 1.236E-14 2.885E-14 4.215E-17 4.627E-16 5.584E-14
2.421E-01 2.887E-14 1.167E-14 2.864E-14 4.224E-17 4.572E-16 5.562E-14
2.443E-01 2.745E-14 1.104E-14 2.841E-14 4.228E-17 4.516E-16 5.541E-14
2.466E-01 2.615E-14 1.048E-14 2.818E-14 4.226E-17 4.459E-16 5.505E-14
2.489E-01 2.496E-14 9.980E-15 2.795E-14 4.218E-17 4.399E-16 5.463E-14
2.512E-01 2.388E-14 9.525E-15 2.773E-14 4.202E-17 4.335E-16 5.419E-14
2.535E-01 2.290E-14 9.113E-15 2.750E-14 4.180E-17 4.269E-16 5.375E-14
2.559E-01 2.201E-14 8.742E-15 2.729E-14 4.156E-17 4.204E-16 5.336E-14
2.582E-01 2.120E-14 8.406E-15 2.708E-14 4.131E-17 4.140E-16 5.306E-14
2.606E-01 2.046E-14 8.092E-15 2.687E-14 4.107E-17 4.078E-16 5.284E-14
2.630E-01 1.979E-14 7.809E-15 2.668E-14 4.083E-17 4.018E-16 5.264E-14
2.655E-01 1.918E-14 7.552E-15 2.650E-14 4.058E-17 3.960E-16 5.237E-14
2.679E-01 1.863E-14 7.317E-15 2.633E-14 4.033E-17 3.903E-16 5.202E-14
2.704E-01 1.812E-14 7.101E-15 2.617E-14 4.007E-17 3.848E-16 5.166E-14
2.729E-01 1.765E-14 6.901E-15 2.601E-14 3.981E-17 3.794E-16 5.129E-14
2.754E-01 1.723E-14 6.718E-15 2.587E-14 3.955E-17 3.741E-16 5.093E-14
2.780E-01 1.683E-14 6.549E-15 2.573E-14 3.928E-17 3.689E-16 5.064E-14
2.805E-01 1.647E-14 6.392E-15 2.560E-14 3.902E-17 3.638E-16 5.042E-14
2.831E-01 1.614E-14 6.243E-15 2.547E-14 3.875E-17 3.588E-16 5.023E-14
2.858E-01 1.582E-14 6.105E-15 2.535E-14 3.847E-17 3.540E-16 5.002E-14
2.884E-01 1.554E-14 5.977E-15 2.524E-14 3.821E-17 3.493E-16 4.974E-14
2.911E-01 1.527E-14 5.856E-15 2.513E-14 3.794E-17 3.447E-16 4.942E-14
2.938E-01 1.502E-14 5.741E-15 2.503E-14 3.768E-17 3.402E-16 4.909E-14
2.965E-01 1.479E-14 5.631E-15 2.493E-14 3.742E-17 3.359E-16 4.876E-14
2.992E-01 1.457E-14 5.527E-15 2.483E-14 3.715E-17 3.316E-16 4.846E-14
3.020E-01 1.437E-14 5.428E-15 2.474E-14 3.689E-17 3.274E-16 4.822E-14
3.048E-01 1.410E-14 5.315E-15 2.464E-14 3.662E-17 3.233E-16 4.803E-14
3.076E-01 1.380E-14 5.194E-15 2.454E-14 3.635E-17 3.193E-16 4.784E-14
3.105E-01 1.350E-14 5.076E-15 2.445E-14 3.608E-17 3.153E-16 4.762E-14
3.133E-01 1.320E-14 4.960E-15 2.435E-14 3.581E-17 3.114E-16 4.734E-14
3.162E-01 1.291E-14 4.847E-15 2.425E-14 3.554E-17 3.076E-16 4.702E-14
3.192E-01 1.262E-14 4.736E-15 2.416E-14 3.526E-17 3.038E-16 4.670E-14
3.221E-01 1.234E-14 4.628E-15 2.406E-14 3.499E-17 3.001E-16 4.640E-14
3.251E-01 1.206E-14 4.523E-15 2.397E-14 3.472E-17 2.965E-16 4.612E-14
3.281E-01 1.178E-14 4.420E-15 2.387E-14 3.445E-17 2.930E-16 4.589E-14
3.311E-01 1.151E-14 4.320E-15 2.378E-14 3.419E-17 2.895E-16 4.568E-14
3.342E-01 1.124E-14 4.222E-15 2.369E-14 3.392E-17 2.862E-16 4.547E-14
3.373E-01 1.098E-14 4.126E-15 2.360E-14 3.366E-17 2.829E-16 4.522E-14
3.404E-01 1.072E-14 4.033E-15 2.351E-14 3.340E-17 2.796E-16 4.492E-14
3.436E-01 1.046E-14 3.942E-15 2.342E-14 3.314E-17 2.764E-16 4.459E-14
3.467E-01 1.021E-14 3.854E-15 2.333E-14 3.288E-17 2.733E-16 4.426E-14
3.499E-01 9.960E-15 3.768E-15 2.324E-14 3.262E-17 2.702E-16 4.395E-14
3.532E-01 9.716E-15 3.683E-15 2.315E-14 3.236E-17 2.671E-16 4.366E-14
3.565E-01 9.475E-15 3.600E-15 2.306E-14 3.210E-17 2.641E-16 4.340E-14
3.597E-01 9.239E-15 3.520E-15 2.297E-14 3.185E-17 2.612E-16 4.315E-14
3.631E-01 9.006E-15 3.441E-15 2.289E-14 3.159E-17 2.582E-16 4.289E-14
3.664E-01 8.777E-15 3.363E-15 2.280E-14 3.133E-17 2.554E-16 4.261E-14
3.698E-01 8.552E-15 3.286E-15 2.272E-14 3.108E-17 2.526E-16 4.229E-14
3.733E-01 8.331E-15 3.210E-15 2.263E-14 3.083E-17 2.498E-16 4.194E-14
3.767E-01 8.114E-15 3.135E-15 2.255E-14 3.058E-17 2.471E-16 4.160E-14
3.802E-01 7.900E-15 3.062E-15 2.247E-14 3.033E-17 2.445E-16 4.126E-14
3.837E-01 7.690E-15 2.990E-15 2.239E-14 3.009E-17 2.419E-16 4.094E-14
3.873E-01 7.484E-15 2.919E-15 2.231E-14 2.984E-17 2.393E-16 4.064E-14
3.908E-01 7.282E-15 2.850E-15 2.222E-14 2.960E-17 2.367E-16 4.034E-14
3.945E-01 7.084E-15 2.781E-15 2.214E-14 2.936E-17 2.342E-16 4.004E-14
3.981E-01 6.889E-15 2.714E-15 2.206E-14 2.912E-17 2.318E-16 3.972E-14
4.018E-01 6.698E-15 2.648E-15 2.197E-14 2.887E-17 2.293E-16 3.938E-14
4.055E-01 6.511E-15 2.583E-15 2.189E-14 2.863E-17 2.269E-16 3.902E-14
4.093E-01 6.327E-15 2.519E-15 2.180E-14 2.839E-17 2.245E-16 3.865E-14
4.130E-01 6.147E-15 2.456E-15 2.172E-14 2.815E-17 2.221E-16 3.829E-14
4.169E-01 5.971E-15 2.395E-15 2.163E-14 2.792E-17 2.198E-16 3.793E-14
4.207E-01 5.798E-15 2.334E-15 2.154E-14 2.768E-17 2.175E-16 3.758E-14
4.246E-01 5.629E-15 2.275E-15 2.146E-14 2.744E-17 2.152E-16 3.724E-14
4.285E-01 5.463E-15 2.216E-15 2.137E-14 2.721E-17 2.130E-16 3.690E-14
4.325E-01 5.301E-15 2.159E-15 2.129E-14 2.697E-17 2.108E-16 3.654E-14
4.365E-01 5.142E-15 2.103E-15 2.120E-14 2.675E-17 2.086E-16 3.618E-14
4.406E-01 4.987E-15 2.049E-15 2.111E-14 2.652E-17 2.065E-16 3.581E-14
4.446E-01 4.835E-15 1.996E-15 2.102E-14 2.629E-17 2.044E-16 3.543E-14
4.487E-01 4.686E-15 1.944E-15 2.092E-14 2.606E-17 2.023E-16 3.504E-14
4.529E-01 4.540E-15 1.894E-15 2.083E-14 2.584E-17 2.002E-16 3.466E-14
4.571E-01 4.398E-15 1.844E-15 2.074E-14 2.562E-17 1.982E-16 3.428E-14
4.613E-01 4.259E-15 1.796E-15 2.065E-14 2.540E-17 1.962E-16 3.391E-14
4.656E-01 4.123E-15 1.749E-15 2.056E-14 2.518E-17 1.942E-16 3.354E-14
4.699E-01 3.991E-15 1.704E-15 2.046E-14 2.496E-17 1.922E-16 3.316E-14
4.742E-01 3.861E-15 1.659E-15 2.037E-14 2.474E-17 1.903E-16 3.278E-14
4.786E-01 3.734E-15 1.616E-15 2.028E-14 2.453E-17 1.884E-16 3.240E-14
4.831E-01 3.610E-15 1.574E-15 2.019E-14 2.432E-17 1.865E-16 3.201E-14
4.875E-01 3.489E-15 1.532E-15 2.009E-14 2.411E-17 1.847E-16 3.161E-14
4.920E-01 3.371E-15 1.493E-15 2.000E-14 2.390E-17 1.829E-16 3.122E-14
4.966E-01 3.255E-15 1.454E-15 1.990E-14 2.370E-17 1.811E-16 3.082E-14
5.012E-01 3.142E-15 1.416E-15 1.981E-14 2.349E-17 1.793E-16 3.043E-14
5.058E-01 3.031E-15 1.379E-15 1.972E-14 2.329E-17 1.775E-16 3.003E-14
5.105E-01 2.922E-15 1.343E-15 1.962E-14 2.309E-17 1.758E-16 2.965E-14
5.152E-01 2.816E-15 1.308E-15 1.953E-14 2.289E-17 1.741E-16 2.926E-14
5.200E-01 2.712E-15 1.273E-15 1.943E-14 2.269E-17 1.724E-16 2.887E-14
5.248E-01 2.611E-15 1.240E-15 1.934E-14 2.250E-17 1.707E-16 2.848E-14
5.297E-01 2.512E-15 1.208E-15 1.924E-14 2.230E-17 1.691E-16 2.808E-14
5.346E-01 2.416E-15 1.176E-15 1.915E-14 2.211E-17 1.674E-16 2.769E-14
5.395E-01 2.324E-15 1.145E-15 1.905E-14 2.192E-17 1.658E-16 2.729E-14
5.445E-01 2.233E-15 1.115E-15 1.896E-14 2.173E-17 1.642E-16 2.690E-14
5.495E-01 2.146E-15 1.086E-15 1.886E-14 2.154E-17 1.627E-16 2.651E-14
5.546E-01 2.061E-15 1.058E-15 1.876E-14 2.135E-17 1.611E-16 2.612E-14
5.598E-01 1.978E-15 1.030E-15 1.867E-14 2.117E-17 1.596E-16 2.573E-14
5.649E-01 1.899E-15 1.003E-15 1.857E-14 2.098E-17 1.580E-16 2.535E-14
5.702E-01 1.822E-15 9.773E-16 1.848E-14 2.080E-17 1.565E-16 2.496E-14
5.754E-01 1.747E-15 9.518E-16 1.838E-14 2.062E-17 1.550E-16 2.458E-14
5.808E-01 1.675E-15 9.271E-16 1.829E-14 2.044E-17 1.536E-16 2.420E-14
5.861E-01 1.605E-15 9.030E-16 1.819E-14 2.026E-17 1.521E-16 2.382E-14
5.916E-01 1.538E-15 8.797E-16 1.810E-14 2.008E-17 1.507E-16 2.344E-14
5.970E-01 1.473E-15 8.569E-16 1.800E-14 1.991E-17 1.493E-16 2.306E-14
6.026E-01 1.410E-15 8.348E-16 1.791E-14 1.974E-17 1.478E-16 2.269E-14
6.081E-01 1.350E-15 8.134E-16 1.781E-14 1.956E-17 1.465E-16 2.231E-14
6.138E-01 1.292E-15 7.925E-16 1.771E-14 1.939E-17 1.451E-16 2.194E-14
6.194E-01 1.235E-15 7.723E-16 1.762E-14 1.922E-17 1.437E-16 2.158E-14
6.252E-01 1.181E-15 7.526E-16 1.752E-14 1.906E-17 1.424E-16 2.121E-14
6.310E-01 1.128E-15 7.335E-16 1.742E-14 1.889E-17 1.410E-16 2.085E-14
6.368E-01 1.077E-15 7.150E-16 1.733E-14 1.872E-17 1.397E-16 2.049E-14
6.427E-01 1.027E-15 6.970E-16 1.723E-14 1.856E-17 1.384E-16 2.013E-14
6.486E-01 9.786E-16 6.796E-16 1.713E-14 1.840E-17 1.371E-16 1.978E-14
6.546E-01 9.312E-16 6.626E-16 1.704E-14 1.824E-17 1.358E-16 1.943E-14
6.607E-01 8.852E-16 6.461E-16 1.694E-14 1.808E-17 1.346E-16 1.908E-14
6.668E-01 8.407E-16 6.299E-16 1.684E-14 1.792E-17 1.334E-16 1.873E-14
6.730E-01 7.980E-16 6.142E-16 1.675E-14 1.777E-17 1.321E-16 1.839E-14
6.792E-01 7.568E-16 5.990E-16 1.665E-14 1.761E-17 1.309E-16 1.805E-14
6.855E-01 7.174E-16 5.842E-16 1.655E-14 1.746E-17 1.297E-16 1.771E-14
6.918E-01 6.796E-16 5.699E-16 1.645E-14 1.731E-17 1.285E-16 1.738E-14
6.982E-01 6.435E-16 5.560E-16 1.635E-14 1.716E-17 1.274E-16 1.705E-14
7.047E-01 6.092E-16 5.424E-16 1.626E-14 1.701E-17 1.262E-16 1.672E-14
7.112E-01 5.766E-16 5.293E-16 1.616E-14 1.687E-17 1.251E-16 1.640E-14
7.178E-01 5.457E-16 5.165E-16 1.606E-14 1.672E-17 1.240E-16 1.608E-14
7.244E-01 5.165E-16 5.041E-16 1.596E-14 1.658E-17 1.228E-16 1.576E-14
7.311E-01 4.889E-16 4.921E-16 1.586E-14 1.644E-17 1.217E-16 1.545E-14
7.379E-01 4.627E-16 4.804E-16 1.576E-14 1.630E-17 1.206E-16 1.514E-14
7.447E-01 4.379E-16 4.691E-16 1.566E-14 1.616E-17 1.196E-16 1.483E-14
7.516E-01 4.143E-16 4.581E-16 1.556E-14 1.602E-17 1.185E-16 1.453E-14
7.586E-01 3.919E-16 4.474E-16 1.547E-14 1.588E-17 1.174E-16 1.423E-14
7.656E-01 3.706E-16 4.370E-16 1.537E-14 1.575E-17 1.164E-16 1.394E-14
7.727E-01 3.503E-16 4.270E-16 1.527E-14 1.561E-17 1.153E-16 1.365E-14
7.798E-01 3.310E-16 4.172E-16 1.517E-14 1.548E-17 1.143E-16 1.336E-14
7.870E-01 3.128E-16 4.078E-16 1.507E-14 1.534E-17 1.133E-16 1.308E-14
7.943E-01 2.956E-16 3.986E-16 1.497E-14 1.521E-17 1.123E-16 1.280E-14
8.017E-01 2.795E-16 3.897E-16 1.487E-14 1.508E-17 1.113E-16 1.252E-14
8.091E-01 2.645E-16 3.812E-16 1.477E-14 1.495E-17 1.103E-16 1.225E-14
8.166E-01 2.504E-16 3.728E-16 1.467E-14 1.482E-17 1.093E-16 1.198E-14
8.241E-01 2.373E-16 3.648E-16 1.457E-14 1.469E-17 1.083E-16 1.172E-14
8.318E-01 2.253E-16 3.570E-16 1.446E-14 1.457E-17 1.073E-16 1.146E-14
8.395E-01 2.142E-16 3.495E-16 1.436E-14 1.444E-17 1.064E-16 1.120E-14
8.472E-01 2.041E-16 3.422E-16 1.426E-14 1.432E-17 1.054E-16 1.094E-14
8.551E-01 1.949E-16 3.352E-16 1.416E-14 1.419E-17 1.045E-16 1.069E-14
8.630E-01 1.867E-16 3.285E-16 1.406E-14 1.407E-17 1.036E-16 1.045E-14
8.710E-01 1.795E-16 3.220E-16 1.396E-14 1.395E-17 1.026E-16 1.020E-14
8.790E-01 1.733E-16 3.158E-16 1.386E-14 1.383E-17 1.017E-16 9.965E-15
8.872E-01 1.680E-16 3.099E-16 1.376E-14 1.371E-17 1.008E-16 9.729E-15
8.954E-01 1.638E-16 3.043E-16 1.366E-14 1.359E-17 9.991E-17 9.496E-15
9.036E-01 1.608E-16 2.990E-16 1.355E-14 1.347E-17 9.901E-17 9.267E-15
9.120E-01 1.590E-16 2.940E-16 1.345E-14 1.335E-17 9.813E-17 9.042E-15
9.204E-01 1.585E-16 2.894E-16 1.335E-14 1.324E-17 9.725E-17 8.820E-15
9.290E-01 1.597E-16 2.853E-16 1.325E-14 1.312E-17 9.638E-17 8.602E-15
9.376E-01 1.629E-16 2.817E-16 1.315E-14 1.301E-17 9.552E-17 8.388E-15
9.462E-01 1.685E-16 2.787E-16 1.305E-14 1.289E-17 9.467E-17 8.177E-15
9.550E-01 1.772E-16 2.766E-16 1.295E-14 1.278E-17 9.383E-17 7.970E-15
9.638E-01 1.901E-16 2.755E-16 1.285E-14 1.267E-17 9.299E-17 7.767E-15
9.727E-01 2.087E-16 2.759E-16 1.274E-14 1.256E-17 9.217E-17 7.567E-15
9.817E-01 2.356E-16 2.785E-16 1.264E-14 1.245E-17 9.135E-17 7.372E-15
9.908E-01 2.745E-16 2.842E-16 1.254E-14 1.234E-17 9.054E-17 7.180E-15
1.000E+00 3.318E-16 2.947E-16 1.243E-14 1.224E-17 8.974E-17 6.993E-15
1.009E+00 4.172E-16 3.124E-16 1.233E-14 1.213E-17 8.895E-17 6.809E-15
1.019E+00 5.448E-16 3.411E-16 1.223E-14 1.203E-17 8.817E-17 6.629E-15
1.028E+00 7.271E-16 3.840E-16 1.213E-14 1.192E-17 8.739E-17 6.453E-15
1.038E+00 9.465E-16 4.365E-16 1.203E-14 1.182E-17 8.663E-17 6.281E-15
1.047E+00 1.100E-15 4.723E-16 1.193E-14 1.172E-17 8.587E-17 6.113E-15
1.057E+00 1.055E-15 4.577E-16 1.183E-14 1.162E-17 8.512E-17 5.950E-15
1.067E+00 8.561E-16 4.037E-16 1.172E-14 1.152E-17 8.437E-17 5.790E-15
1.076E+00 6.448E-16 3.468E-16 1.162E-14 1.142E-17 8.364E-17 5.633E-15
1.086E+00 4.849E-16 3.031E-16 1.152E-14 1.132E-17 8.291E-17 5.481E-15
1.096E+00 3.763E-16 2.725E-16 1.142E-14 1.123E-17 8.219E-17 5.333E-15
1.107E+00 3.041E-16 2.512E-16 1.132E-14 1.113E-17 8.147E-17 5.189E-15
1.117E+00 2.560E-16 2.362E-16 1.122E-14 1.103E-17 8.077E-17 5.048E-15
1.127E+00 2.242E-16 2.254E-16 1.112E-14 1.094E-17 8.007E-17 4.911E-15
1.138E+00 2.035E-16 2.174E-16 1.102E-14 1.085E-17 7.937E-17 4.777E-15
1.148E+00 1.910E-16 2.116E-16 1.091E-14 1.075E-17 7.868E-17 4.648E-15
1.159E+00 1.851E-16 2.075E-16 1.081E-14 1.066E-17 7.799E-17 4.521E-15
1.169E+00 1.848E-16 2.049E-16 1.071E-14 1.057E-17 7.732E-17 4.398E-15
1.180E+00 1.896E-16 2.036E-16 1.061E-14 1.048E-17 7.664E-17 4.279E-15
1.191E+00 1.994E-16 2.037E-16 1.051E-14 1.039E-17 7.598E-17 4.163E-15
1.202E+00 2.139E-16 2.050E-16 1.041E-14 1.030E-17 7.532E-17 4.050E-15
1.213E+00 2.325E-16 2.074E-16 1.032E-14 1.021E-17 7.467E-17 3.940E-15
1.225E+00 2.535E-16 2.105E-16 1.022E-14 1.012E-17 7.402E-17 3.833E-15
1.236E+00 2.738E-16 2.135E-16 1.012E-14 1.004E-17 7.338E-17 3.730E-15
1.247E+00 2.885E-16 2.151E-16 1.001E-14 9.956E-18 7.277E-17 3.628E-15
1.259E+00 2.928E-16 2.141E-16 9.912E-15 9.876E-18 7.218E-17 3.530E-15
1.271E+00 2.843E-16 2.098E-16 9.811E-15 9.797E-18 7.159E-17 3.436E-15
1.282E+00 2.646E-16 2.027E-16 9.712E-15 9.718E-18 7.101E-17 3.344E-15
1.294E+00 2.381E-16 1.940E-16 9.615E-15 9.640E-18 7.043E-17 3.254E-15
1.306E+00 2.097E-16 1.848E-16 9.518E-15 9.564E-18 6.987E-17 3.168E-15
