               WD01/DL07 grain model for R_V=3.1, q_PAH=0.046
 2.000E-03 = a1 (um)
 2.000E-02 = a2 (um)
                              sigma_abs (um^2/H)
           --------- carbon -----------  -------- silicate ----------
lambda      a<a1     a1<a<a2    a2<a      a<a1     a1<a<a2    a2<a 
 (um)     (um^2/H)  (um^2/H)  (um^2/H)  (um^2/H)  (um^2/H)  (um^2/H) 
1.000E-01 5.153E-14 2.141E-14 1.210E-14 3.695E-15 2.829E-14 3.620E-14
1.009E-01 5.037E-14 2.084E-14 1.214E-14 3.576E-15 2.773E-14 3.628E-14
1.019E-01 4.921E-14 2.028E-14 1.218E-14 3.452E-15 2.713E-14 3.637E-14
1.028E-01 4.804E-14 1.969E-14 1.222E-14 3.320E-15 2.646E-14 3.646E-14
1.038E-01 4.688E-14 1.904E-14 1.226E-14 3.182E-15 2.571E-14 3.655E-14
1.047E-01 4.572E-14 1.837E-14 1.229E-14 3.049E-15 2.496E-14 3.665E-14
1.057E-01 4.456E-14 1.768E-14 1.232E-14 2.936E-15 2.429E-14 3.673E-14
1.067E-01 4.341E-14 1.699E-14 1.236E-14 2.836E-15 2.367E-14 3.682E-14
1.076E-01 4.228E-14 1.632E-14 1.241E-14 2.745E-15 2.308E-14 3.690E-14
1.086E-01 4.115E-14 1.565E-14 1.247E-14 2.658E-15 2.252E-14 3.697E-14
1.096E-01 4.004E-14 1.503E-14 1.252E-14 2.577E-15 2.198E-14 3.705E-14
1.107E-01 3.894E-14 1.447E-14 1.257E-14 2.499E-15 2.145E-14 3.712E-14
1.117E-01 3.787E-14 1.396E-14 1.265E-14 2.426E-15 2.094E-14 3.718E-14
1.127E-01 3.681E-14 1.348E-14 1.274E-14 2.355E-15 2.045E-14 3.725E-14
1.138E-01 3.577E-14 1.300E-14 1.283E-14 2.287E-15 1.996E-14 3.731E-14
1.148E-01 3.474E-14 1.252E-14 1.293E-14 2.223E-15 1.949E-14 3.736E-14
1.159E-01 3.374E-14 1.207E-14 1.296E-14 2.160E-15 1.903E-14 3.742E-14
1.169E-01 3.276E-14 1.163E-14 1.298E-14 2.099E-15 1.858E-14 3.747E-14
1.180E-01 3.180E-14 1.122E-14 1.298E-14 2.041E-15 1.813E-14 3.752E-14
1.191E-01 3.086E-14 1.080E-14 1.297E-14 1.985E-15 1.770E-14 3.756E-14
1.202E-01 2.995E-14 1.040E-14 1.295E-14 1.930E-15 1.727E-14 3.760E-14
1.213E-01 2.906E-14 1.000E-14 1.292E-14 1.878E-15 1.685E-14 3.764E-14
1.225E-01 2.819E-14 9.626E-15 1.288E-14 1.826E-15 1.644E-14 3.768E-14
1.236E-01 2.735E-14 9.268E-15 1.282E-14 1.776E-15 1.603E-14 3.771E-14
1.247E-01 2.654E-14 8.930E-15 1.275E-14 1.728E-15 1.564E-14 3.774E-14
1.259E-01 2.575E-14 8.612E-15 1.266E-14 1.681E-15 1.525E-14 3.776E-14
1.271E-01 2.499E-14 8.315E-15 1.256E-14 1.635E-15 1.486E-14 3.778E-14
1.282E-01 2.425E-14 8.040E-15 1.246E-14 1.590E-15 1.448E-14 3.780E-14
1.294E-01 2.355E-14 7.785E-15 1.235E-14 1.545E-15 1.411E-14 3.782E-14
1.306E-01 2.256E-14 7.470E-15 1.224E-14 1.502E-15 1.374E-14 3.783E-14
1.318E-01 2.201E-14 7.279E-15 1.213E-14 1.460E-15 1.338E-14 3.783E-14
1.330E-01 2.150E-14 7.106E-15 1.203E-14 1.418E-15 1.302E-14 3.784E-14
1.343E-01 2.102E-14 6.950E-15 1.192E-14 1.377E-15 1.266E-14 3.783E-14
1.355E-01 2.057E-14 6.809E-15 1.183E-14 1.337E-15 1.231E-14 3.783E-14
1.368E-01 2.016E-14 6.683E-15 1.173E-14 1.296E-15 1.196E-14 3.782E-14
1.380E-01 1.978E-14 6.569E-15 1.164E-14 1.256E-15 1.161E-14 3.781E-14
1.393E-01 1.942E-14 6.467E-15 1.155E-14 1.216E-15 1.126E-14 3.779E-14
1.406E-01 1.910E-14 6.376E-15 1.146E-14 1.175E-15 1.090E-14 3.777E-14
1.419E-01 1.881E-14 6.297E-15 1.137E-14 1.132E-15 1.053E-14 3.775E-14
1.432E-01 1.854E-14 6.232E-15 1.129E-14 1.082E-15 1.010E-14 3.771E-14
1.445E-01 1.831E-14 6.181E-15 1.121E-14 1.025E-15 9.612E-15 3.764E-14
1.459E-01 1.810E-14 6.143E-15 1.113E-14 9.649E-16 9.080E-15 3.754E-14
1.472E-01 1.792E-14 6.122E-15 1.108E-14 9.037E-16 8.523E-15 3.739E-14
1.486E-01 1.777E-14 6.113E-15 1.103E-14 8.449E-16 7.977E-15 3.721E-14
1.500E-01 1.764E-14 6.116E-15 1.099E-14 7.857E-16 7.419E-15 3.696E-14
1.514E-01 1.754E-14 6.130E-15 1.095E-14 7.290E-16 6.876E-15 3.667E-14
1.528E-01 1.747E-14 6.155E-15 1.093E-14 6.757E-16 6.361E-15 3.633E-14
1.542E-01 1.742E-14 6.190E-15 1.091E-14 6.254E-16 5.871E-15 3.594E-14
1.556E-01 1.740E-14 6.235E-15 1.089E-14 5.784E-16 5.411E-15 3.549E-14
1.570E-01 1.741E-14 6.290E-15 1.089E-14 5.354E-16 4.987E-15 3.499E-14
1.585E-01 1.745E-14 6.356E-15 1.089E-14 4.953E-16 4.592E-15 3.444E-14
1.600E-01 1.751E-14 6.433E-15 1.089E-14 4.579E-16 4.223E-15 3.384E-14
1.614E-01 1.761E-14 6.523E-15 1.090E-14 4.234E-16 3.884E-15 3.319E-14
1.629E-01 1.774E-14 6.627E-15 1.092E-14 3.915E-16 3.572E-15 3.251E-14
1.644E-01 1.789E-14 6.743E-15 1.093E-14 3.620E-16 3.284E-15 3.178E-14
1.660E-01 1.808E-14 6.874E-15 1.095E-14 3.352E-16 3.024E-15 3.103E-14
1.675E-01 1.831E-14 7.021E-15 1.098E-14 3.107E-16 2.788E-15 3.026E-14
1.690E-01 1.857E-14 7.184E-15 1.101E-14 2.879E-16 2.569E-15 2.946E-14
1.706E-01 1.887E-14 7.361E-15 1.103E-14 2.672E-16 2.371E-15 2.864E-14
1.722E-01 1.921E-14 7.552E-15 1.106E-14 2.482E-16 2.191E-15 2.780E-14
1.738E-01 1.957E-14 7.760E-15 1.109E-14 2.304E-16 2.024E-15 2.695E-14
1.754E-01 1.998E-14 7.989E-15 1.113E-14 2.139E-16 1.869E-15 2.610E-14
1.770E-01 2.043E-14 8.238E-15 1.118E-14 1.985E-16 1.726E-15 2.523E-14
1.786E-01 2.094E-14 8.511E-15 1.123E-14 1.843E-16 1.595E-15 2.433E-14
1.803E-01 2.149E-14 8.810E-15 1.128E-14 1.712E-16 1.475E-15 2.343E-14
1.820E-01 2.211E-14 9.140E-15 1.134E-14 1.593E-16 1.366E-15 2.254E-14
1.837E-01 2.280E-14 9.502E-15 1.140E-14 1.482E-16 1.266E-15 2.168E-14
1.854E-01 2.356E-14 9.899E-15 1.148E-14 1.381E-16 1.174E-15 2.085E-14
1.871E-01 2.441E-14 1.034E-14 1.156E-14 1.288E-16 1.091E-15 2.004E-14
1.888E-01 2.535E-14 1.082E-14 1.166E-14 1.203E-16 1.015E-15 1.922E-14
1.905E-01 2.640E-14 1.134E-14 1.176E-14 1.124E-16 9.450E-16 1.839E-14
1.923E-01 2.755E-14 1.191E-14 1.190E-14 1.048E-16 8.774E-16 1.755E-14
1.941E-01 2.882E-14 1.253E-14 1.204E-14 9.766E-17 8.150E-16 1.675E-14
1.959E-01 3.021E-14 1.320E-14 1.220E-14 9.112E-17 7.577E-16 1.600E-14
1.977E-01 3.172E-14 1.390E-14 1.237E-14 8.510E-17 7.054E-16 1.531E-14
1.995E-01 3.334E-14 1.464E-14 1.255E-14 7.962E-17 6.578E-16 1.464E-14
2.014E-01 3.505E-14 1.541E-14 1.274E-14 7.460E-17 6.144E-16 1.392E-14
2.032E-01 3.684E-14 1.618E-14 1.293E-14 7.005E-17 5.751E-16 1.321E-14
2.051E-01 3.866E-14 1.694E-14 1.312E-14 6.596E-17 5.399E-16 1.259E-14
2.070E-01 4.044E-14 1.766E-14 1.332E-14 6.231E-17 5.086E-16 1.204E-14
2.089E-01 4.212E-14 1.831E-14 1.350E-14 5.909E-17 4.809E-16 1.156E-14
2.109E-01 4.359E-14 1.886E-14 1.368E-14 5.623E-17 4.564E-16 1.118E-14
2.128E-01 4.478E-14 1.927E-14 1.384E-14 5.367E-17 4.344E-16 1.081E-14
2.148E-01 4.559E-14 1.951E-14 1.399E-14 5.143E-17 4.153E-16 1.035E-14
2.168E-01 4.595E-14 1.955E-14 1.411E-14 4.949E-17 3.986E-16 9.932E-15
2.188E-01 4.584E-14 1.934E-14 1.420E-14 4.783E-17 3.843E-16 9.600E-15
2.208E-01 4.525E-14 1.891E-14 1.424E-14 4.642E-17 3.721E-16 9.332E-15
2.228E-01 4.424E-14 1.831E-14 1.425E-14 4.530E-17 3.623E-16 9.118E-15
2.249E-01 4.287E-14 1.760E-14 1.423E-14 4.442E-17 3.545E-16 8.988E-15
2.270E-01 4.124E-14 1.683E-14 1.420E-14 4.379E-17 3.487E-16 8.933E-15
2.291E-01 3.945E-14 1.602E-14 1.414E-14 4.332E-17 3.442E-16 8.784E-15
2.312E-01 3.757E-14 1.519E-14 1.406E-14 4.295E-17 3.406E-16 8.616E-15
2.333E-01 3.569E-14 1.435E-14 1.396E-14 4.264E-17 3.375E-16 8.486E-15
2.355E-01 3.384E-14 1.354E-14 1.383E-14 4.241E-17 3.350E-16 8.381E-15
2.377E-01 3.207E-14 1.275E-14 1.369E-14 4.225E-17 3.331E-16 8.308E-15
2.399E-01 3.041E-14 1.203E-14 1.355E-14 4.213E-17 3.317E-16 8.267E-15
2.421E-01 2.887E-14 1.136E-14 1.341E-14 4.222E-17 3.318E-16 8.295E-15
2.443E-01 2.745E-14 1.076E-14 1.328E-14 4.226E-17 3.316E-16 8.323E-15
2.466E-01 2.615E-14 1.022E-14 1.317E-14 4.224E-17 3.309E-16 8.269E-15
2.489E-01 2.496E-14 9.734E-15 1.307E-14 4.216E-17 3.297E-16 8.181E-15
2.512E-01 2.388E-14 9.296E-15 1.298E-14 4.200E-17 3.280E-16 8.091E-15
2.535E-01 2.290E-14 8.901E-15 1.290E-14 4.179E-17 3.258E-16 7.993E-15
2.559E-01 2.201E-14 8.544E-15 1.283E-14 4.155E-17 3.235E-16 7.903E-15
2.582E-01 2.120E-14 8.222E-15 1.277E-14 4.130E-17 3.211E-16 7.840E-15
2.606E-01 2.046E-14 7.920E-15 1.272E-14 4.106E-17 3.188E-16 7.806E-15
2.630E-01 1.979E-14 7.648E-15 1.267E-14 4.082E-17 3.165E-16 7.787E-15
2.655E-01 1.918E-14 7.402E-15 1.264E-14 4.057E-17 3.141E-16 7.731E-15
2.679E-01 1.863E-14 7.176E-15 1.261E-14 4.032E-17 3.118E-16 7.643E-15
2.704E-01 1.812E-14 6.968E-15 1.260E-14 4.006E-17 3.094E-16 7.552E-15
2.729E-01 1.765E-14 6.776E-15 1.258E-14 3.980E-17 3.071E-16 7.456E-15
2.754E-01 1.723E-14 6.600E-15 1.258E-14 3.954E-17 3.047E-16 7.357E-15
2.780E-01 1.683E-14 6.438E-15 1.258E-14 3.927E-17 3.023E-16 7.278E-15
2.805E-01 1.647E-14 6.287E-15 1.259E-14 3.901E-17 2.999E-16 7.226E-15
2.831E-01 1.614E-14 6.145E-15 1.260E-14 3.874E-17 2.975E-16 7.194E-15
2.858E-01 1.582E-14 6.011E-15 1.261E-14 3.847E-17 2.951E-16 7.155E-15
2.884E-01 1.554E-14 5.888E-15 1.262E-14 3.820E-17 2.928E-16 7.088E-15
2.911E-01 1.527E-14 5.772E-15 1.262E-14 3.794E-17 2.904E-16 7.005E-15
2.938E-01 1.502E-14 5.661E-15 1.262E-14 3.767E-17 2.881E-16 6.920E-15
2.965E-01 1.479E-14 5.555E-15 1.261E-14 3.741E-17 2.858E-16 6.829E-15
2.992E-01 1.457E-14 5.455E-15 1.260E-14 3.715E-17 2.835E-16 6.741E-15
3.020E-01 1.437E-14 5.359E-15 1.259E-14 3.688E-17 2.813E-16 6.673E-15
3.048E-01 1.410E-14 5.250E-15 1.258E-14 3.662E-17 2.790E-16 6.627E-15
3.076E-01 1.380E-14 5.132E-15 1.256E-14 3.635E-17 2.767E-16 6.591E-15
3.105E-01 1.350E-14 5.016E-15 1.255E-14 3.608E-17 2.744E-16 6.544E-15
3.133E-01 1.320E-14 4.903E-15 1.253E-14 3.580E-17 2.721E-16 6.477E-15
3.162E-01 1.291E-14 4.793E-15 1.251E-14 3.553E-17 2.698E-16 6.398E-15
3.192E-01 1.262E-14 4.685E-15 1.249E-14 3.526E-17 2.675E-16 6.315E-15
3.221E-01 1.234E-14 4.579E-15 1.247E-14 3.499E-17 2.652E-16 6.231E-15
3.251E-01 1.206E-14 4.476E-15 1.245E-14 3.471E-17 2.629E-16 6.155E-15
3.281E-01 1.178E-14 4.375E-15 1.242E-14 3.445E-17 2.607E-16 6.095E-15
3.311E-01 1.151E-14 4.277E-15 1.240E-14 3.418E-17 2.585E-16 6.050E-15
3.342E-01 1.124E-14 4.181E-15 1.237E-14 3.392E-17 2.563E-16 6.009E-15
3.373E-01 1.098E-14 4.087E-15 1.234E-14 3.366E-17 2.542E-16 5.959E-15
3.404E-01 1.072E-14 3.995E-15 1.231E-14 3.340E-17 2.520E-16 5.895E-15
3.436E-01 1.046E-14 3.906E-15 1.229E-14 3.314E-17 2.499E-16 5.820E-15
3.467E-01 1.021E-14 3.819E-15 1.226E-14 3.288E-17 2.478E-16 5.743E-15
3.499E-01 9.960E-15 3.734E-15 1.223E-14 3.262E-17 2.456E-16 5.669E-15
3.532E-01 9.716E-15 3.651E-15 1.220E-14 3.236E-17 2.435E-16 5.603E-15
3.565E-01 9.475E-15 3.570E-15 1.216E-14 3.210E-17 2.414E-16 5.548E-15
3.597E-01 9.239E-15 3.490E-15 1.213E-14 3.184E-17 2.393E-16 5.502E-15
3.631E-01 9.006E-15 3.413E-15 1.210E-14 3.159E-17 2.372E-16 5.457E-15
3.664E-01 8.777E-15 3.336E-15 1.207E-14 3.133E-17 2.352E-16 5.407E-15
3.698E-01 8.552E-15 3.260E-15 1.203E-14 3.108E-17 2.332E-16 5.346E-15
3.733E-01 8.331E-15 3.185E-15 1.200E-14 3.083E-17 2.312E-16 5.279E-15
3.767E-01 8.114E-15 3.111E-15 1.196E-14 3.058E-17 2.292E-16 5.210E-15
3.802E-01 7.900E-15 3.039E-15 1.192E-14 3.033E-17 2.272E-16 5.144E-15
3.837E-01 7.690E-15 2.968E-15 1.189E-14 3.009E-17 2.252E-16 5.085E-15
3.873E-01 7.484E-15 2.898E-15 1.185E-14 2.984E-17 2.233E-16 5.033E-15
3.908E-01 7.282E-15 2.829E-15 1.181E-14 2.960E-17 2.213E-16 4.986E-15
3.945E-01 7.084E-15 2.762E-15 1.177E-14 2.936E-17 2.194E-16 4.940E-15
3.981E-01 6.889E-15 2.695E-15 1.173E-14 2.911E-17 2.175E-16 4.891E-15
4.018E-01 6.698E-15 2.630E-15 1.169E-14 2.887E-17 2.156E-16 4.837E-15
4.055E-01 6.511E-15 2.565E-15 1.164E-14 2.863E-17 2.137E-16 4.777E-15
4.093E-01 6.327E-15 2.502E-15 1.160E-14 2.839E-17 2.118E-16 4.717E-15
4.130E-01 6.147E-15 2.440E-15 1.155E-14 2.815E-17 2.099E-16 4.657E-15
4.169E-01 5.971E-15 2.379E-15 1.150E-14 2.791E-17 2.080E-16 4.602E-15
4.207E-01 5.798E-15 2.319E-15 1.145E-14 2.768E-17 2.062E-16 4.550E-15
4.246E-01 5.629E-15 2.260E-15 1.140E-14 2.744E-17 2.043E-16 4.501E-15
4.285E-01 5.463E-15 2.202E-15 1.135E-14 2.721E-17 2.025E-16 4.453E-15
4.325E-01 5.301E-15 2.146E-15 1.130E-14 2.697E-17 2.007E-16 4.405E-15
4.365E-01 5.142E-15 2.091E-15 1.124E-14 2.674E-17 1.989E-16 4.356E-15
4.406E-01 4.987E-15 2.037E-15 1.119E-14 2.652E-17 1.971E-16 4.305E-15
4.446E-01 4.835E-15 1.984E-15 1.113E-14 2.629E-17 1.953E-16 4.252E-15
4.487E-01 4.686E-15 1.933E-15 1.107E-14 2.606E-17 1.936E-16 4.199E-15
4.529E-01 4.540E-15 1.883E-15 1.102E-14 2.584E-17 1.918E-16 4.148E-15
4.571E-01 4.398E-15 1.834E-15 1.096E-14 2.562E-17 1.901E-16 4.099E-15
4.613E-01 4.259E-15 1.786E-15 1.090E-14 2.539E-17 1.884E-16 4.051E-15
4.656E-01 4.123E-15 1.740E-15 1.084E-14 2.518E-17 1.867E-16 4.005E-15
4.699E-01 3.991E-15 1.694E-15 1.078E-14 2.496E-17 1.850E-16 3.959E-15
4.742E-01 3.861E-15 1.650E-15 1.072E-14 2.474E-17 1.834E-16 3.914E-15
4.786E-01 3.734E-15 1.607E-15 1.066E-14 2.453E-17 1.817E-16 3.868E-15
4.831E-01 3.610E-15 1.565E-15 1.060E-14 2.432E-17 1.801E-16 3.822E-15
4.875E-01 3.489E-15 1.524E-15 1.054E-14 2.411E-17 1.785E-16 3.775E-15
4.920E-01 3.371E-15 1.485E-15 1.048E-14 2.390E-17 1.769E-16 3.729E-15
4.966E-01 3.255E-15 1.446E-15 1.042E-14 2.370E-17 1.753E-16 3.683E-15
5.012E-01 3.142E-15 1.409E-15 1.036E-14 2.349E-17 1.738E-16 3.637E-15
5.058E-01 3.031E-15 1.372E-15 1.030E-14 2.329E-17 1.722E-16 3.593E-15
5.105E-01 2.922E-15 1.336E-15 1.023E-14 2.309E-17 1.707E-16 3.550E-15
5.152E-01 2.816E-15 1.301E-15 1.017E-14 2.289E-17 1.691E-16 3.508E-15
5.200E-01 2.712E-15 1.267E-15 1.011E-14 2.269E-17 1.676E-16 3.466E-15
5.248E-01 2.611E-15 1.234E-15 1.005E-14 2.249E-17 1.661E-16 3.425E-15
5.297E-01 2.512E-15 1.202E-15 9.983E-15 2.230E-17 1.647E-16 3.383E-15
5.346E-01 2.416E-15 1.171E-15 9.920E-15 2.211E-17 1.632E-16 3.341E-15
5.395E-01 2.324E-15 1.140E-15 9.856E-15 2.192E-17 1.617E-16 3.299E-15
5.445E-01 2.233E-15 1.110E-15 9.793E-15 2.173E-17 1.603E-16 3.258E-15
5.495E-01 2.146E-15 1.081E-15 9.729E-15 2.154E-17 1.589E-16 3.217E-15
5.546E-01 2.061E-15 1.053E-15 9.665E-15 2.135E-17 1.574E-16 3.177E-15
5.598E-01 1.978E-15 1.026E-15 9.600E-15 2.117E-17 1.560E-16 3.138E-15
5.649E-01 1.899E-15 9.990E-16 9.536E-15 2.098E-17 1.546E-16 3.099E-15
5.702E-01 1.822E-15 9.730E-16 9.471E-15 2.080E-17 1.533E-16 3.061E-15
5.754E-01 1.747E-15 9.477E-16 9.406E-15 2.062E-17 1.519E-16 3.023E-15
5.808E-01 1.675E-15 9.231E-16 9.342E-15 2.044E-17 1.505E-16 2.985E-15
5.861E-01 1.605E-15 8.992E-16 9.277E-15 2.026E-17 1.492E-16 2.947E-15
5.916E-01 1.538E-15 8.760E-16 9.212E-15 2.008E-17 1.479E-16 2.910E-15
5.970E-01 1.473E-15 8.534E-16 9.147E-15 1.991E-17 1.465E-16 2.873E-15
6.026E-01 1.410E-15 8.314E-16 9.082E-15 1.974E-17 1.452E-16 2.836E-15
6.081E-01 1.350E-15 8.101E-16 9.018E-15 1.956E-17 1.439E-16 2.800E-15
6.138E-01 1.291E-15 7.893E-16 8.953E-15 1.939E-17 1.427E-16 2.764E-15
6.194E-01 1.235E-15 7.692E-16 8.888E-15 1.922E-17 1.414E-16 2.729E-15
6.252E-01 1.181E-15 7.497E-16 8.824E-15 1.906E-17 1.401E-16 2.694E-15
6.310E-01 1.128E-15 7.307E-16 8.759E-15 1.889E-17 1.389E-16 2.659E-15
6.368E-01 1.077E-15 7.122E-16 8.695E-15 1.872E-17 1.376E-16 2.625E-15
6.427E-01 1.027E-15 6.944E-16 8.632E-15 1.856E-17 1.364E-16 2.591E-15
6.486E-01 9.786E-16 6.770E-16 8.568E-15 1.840E-17 1.352E-16 2.557E-15
6.546E-01 9.312E-16 6.602E-16 8.505E-15 1.824E-17 1.340E-16 2.524E-15
6.607E-01 8.852E-16 6.437E-16 8.441E-15 1.808E-17 1.328E-16 2.491E-15
6.668E-01 8.407E-16 6.276E-16 8.376E-15 1.792E-17 1.316E-16 2.459E-15
6.730E-01 7.980E-16 6.120E-16 8.312E-15 1.777E-17 1.305E-16 2.427E-15
6.792E-01 7.568E-16 5.969E-16 8.247E-15 1.761E-17 1.293E-16 2.395E-15
6.855E-01 7.174E-16 5.822E-16 8.183E-15 1.746E-17 1.282E-16 2.364E-15
6.918E-01 6.796E-16 5.679E-16 8.120E-15 1.731E-17 1.270E-16 2.333E-15
6.982E-01 6.435E-16 5.540E-16 8.056E-15 1.716E-17 1.259E-16 2.302E-15
7.047E-01 6.092E-16 5.406E-16 7.993E-15 1.701E-17 1.248E-16 2.272E-15
7.112E-01 5.766E-16 5.275E-16 7.930E-15 1.687E-17 1.237E-16 2.242E-15
7.178E-01 5.457E-16 5.148E-16 7.868E-15 1.672E-17 1.227E-16 2.212E-15
7.244E-01 5.165E-16 5.025E-16 7.805E-15 1.658E-17 1.216E-16 2.183E-15
7.311E-01 4.889E-16 4.905E-16 7.743E-15 1.644E-17 1.205E-16 2.154E-15
7.379E-01 4.627E-16 4.789E-16 7.681E-15 1.630E-17 1.195E-16 2.126E-15
7.447E-01 4.379E-16 4.676E-16 7.619E-15 1.616E-17 1.184E-16 2.098E-15
7.516E-01 4.143E-16 4.566E-16 7.557E-15 1.602E-17 1.174E-16 2.070E-15
7.586E-01 3.919E-16 4.460E-16 7.495E-15 1.588E-17 1.164E-16 2.042E-15
7.656E-01 3.706E-16 4.357E-16 7.434E-15 1.575E-17 1.154E-16 2.015E-15
7.727E-01 3.503E-16 4.257E-16 7.373E-15 1.561E-17 1.144E-16 1.988E-15
7.798E-01 3.310E-16 4.160E-16 7.312E-15 1.548E-17 1.134E-16 1.961E-15
7.870E-01 3.128E-16 4.066E-16 7.252E-15 1.534E-17 1.124E-16 1.935E-15
7.943E-01 2.956E-16 3.974E-16 7.192E-15 1.521E-17 1.114E-16 1.909E-15
8.017E-01 2.795E-16 3.886E-16 7.132E-15 1.508E-17 1.104E-16 1.883E-15
8.091E-01 2.645E-16 3.801E-16 7.072E-15 1.495E-17 1.095E-16 1.858E-15
8.166E-01 2.504E-16 3.718E-16 7.012E-15 1.482E-17 1.085E-16 1.833E-15
8.241E-01 2.373E-16 3.638E-16 6.953E-15 1.469E-17 1.076E-16 1.808E-15
8.318E-01 2.253E-16 3.560E-16 6.894E-15 1.457E-17 1.066E-16 1.783E-15
8.395E-01 2.142E-16 3.485E-16 6.835E-15 1.444E-17 1.057E-16 1.759E-15
8.472E-01 2.041E-16 3.413E-16 6.777E-15 1.432E-17 1.048E-16 1.735E-15
8.551E-01 1.949E-16 3.343E-16 6.719E-15 1.419E-17 1.038E-16 1.711E-15
8.630E-01 1.867E-16 3.276E-16 6.662E-15 1.407E-17 1.029E-16 1.687E-15
8.710E-01 1.795E-16 3.212E-16 6.605E-15 1.395E-17 1.020E-16 1.663E-15
8.790E-01 1.733E-16 3.150E-16 6.548E-15 1.383E-17 1.011E-16 1.640E-15
8.872E-01 1.680E-16 3.092E-16 6.492E-15 1.371E-17 1.003E-16 1.617E-15
8.954E-01 1.638E-16 3.036E-16 6.435E-15 1.359E-17 9.937E-17 1.594E-15
9.036E-01 1.608E-16 2.983E-16 6.379E-15 1.347E-17 9.850E-17 1.571E-15
9.120E-01 1.590E-16 2.934E-16 6.323E-15 1.335E-17 9.763E-17 1.549E-15
9.204E-01 1.585E-16 2.888E-16 6.269E-15 1.324E-17 9.677E-17 1.527E-15
9.290E-01 1.597E-16 2.847E-16 6.215E-15 1.312E-17 9.592E-17 1.505E-15
9.376E-01 1.629E-16 2.811E-16 6.161E-15 1.301E-17 9.508E-17 1.483E-15
9.462E-01 1.685E-16 2.781E-16 6.108E-15 1.289E-17 9.425E-17 1.461E-15
9.550E-01 1.772E-16 2.760E-16 6.055E-15 1.278E-17 9.342E-17 1.439E-15
9.638E-01 1.901E-16 2.749E-16 6.001E-15 1.267E-17 9.260E-17 1.418E-15
9.727E-01 2.087E-16 2.754E-16 5.948E-15 1.256E-17 9.179E-17 1.397E-15
9.817E-01 2.356E-16 2.780E-16 5.895E-15 1.245E-17 9.098E-17 1.376E-15
9.908E-01 2.745E-16 2.837E-16 5.843E-15 1.234E-17 9.018E-17 1.356E-15
1.000E+00 3.318E-16 2.942E-16 5.792E-15 1.224E-17 8.939E-17 1.335E-15
1.009E+00 4.172E-16 3.120E-16 5.742E-15 1.213E-17 8.862E-17 1.315E-15
1.019E+00 5.448E-16 3.407E-16 5.691E-15 1.203E-17 8.785E-17 1.296E-15
1.028E+00 7.271E-16 3.836E-16 5.642E-15 1.192E-17 8.709E-17 1.276E-15
1.038E+00 9.465E-16 4.360E-16 5.592E-15 1.182E-17 8.633E-17 1.257E-15
1.047E+00 1.100E-15 4.719E-16 5.542E-15 1.172E-17 8.558E-17 1.238E-15
1.057E+00 1.055E-15 4.573E-16 5.492E-15 1.162E-17 8.484E-17 1.219E-15
1.067E+00 8.561E-16 4.034E-16 5.442E-15 1.152E-17 8.411E-17 1.201E-15
1.076E+00 6.448E-16 3.464E-16 5.392E-15 1.142E-17 8.338E-17 1.183E-15
1.086E+00 4.849E-16 3.027E-16 5.344E-15 1.132E-17 8.267E-17 1.165E-15
1.096E+00 3.763E-16 2.721E-16 5.297E-15 1.123E-17 8.195E-17 1.148E-15
1.107E+00 3.041E-16 2.509E-16 5.250E-15 1.113E-17 8.125E-17 1.131E-15
1.117E+00 2.560E-16 2.359E-16 5.203E-15 1.103E-17 8.055E-17 1.114E-15
1.127E+00 2.242E-16 2.251E-16 5.157E-15 1.094E-17 7.985E-17 1.097E-15
1.138E+00 2.035E-16 2.171E-16 5.110E-15 1.085E-17 7.916E-17 1.081E-15
1.148E+00 1.910E-16 2.114E-16 5.063E-15 1.075E-17 7.848E-17 1.065E-15
1.159E+00 1.851E-16 2.073E-16 5.017E-15 1.066E-17 7.780E-17 1.050E-15
1.169E+00 1.848E-16 2.046E-16 4.971E-15 1.057E-17 7.713E-17 1.034E-15
1.180E+00 1.896E-16 2.034E-16 4.927E-15 1.048E-17 7.647E-17 1.019E-15
1.191E+00 1.994E-16 2.034E-16 4.883E-15 1.039E-17 7.581E-17 1.005E-15
1.202E+00 2.139E-16 2.047E-16 4.840E-15 1.030E-17 7.516E-17 9.901E-16
1.213E+00 2.325E-16 2.072E-16 4.797E-15 1.021E-17 7.451E-17 9.759E-16
1.225E+00 2.535E-16 2.103E-16 4.754E-15 1.012E-17 7.387E-17 9.621E-16
1.236E+00 2.738E-16 2.132E-16 4.711E-15 1.004E-17 7.323E-17 9.485E-16
1.247E+00 2.885E-16 2.149E-16 4.668E-15 9.956E-18 7.263E-17 9.355E-16
1.259E+00 2.928E-16 2.139E-16 4.624E-15 9.876E-18 7.204E-17 9.230E-16
1.271E+00 2.843E-16 2.096E-16 4.581E-15 9.797E-18 7.146E-17 9.107E-16
1.282E+00 2.646E-16 2.026E-16 4.539E-15 9.718E-18 7.088E-17 8.987E-16
1.294E+00 2.381E-16 1.938E-16 4.497E-15 9.640E-18 7.031E-17 8.870E-16
1.306E+00 2.097E-16 1.846E-16 4.456E-15 9.564E-18 6.975E-17 8.755E-16
